Baseline 100%T,,18-11-03ReyndsYbPerov,,20-03-10ReesPerov,,20-03-10ReesYbPerovA,,20-03-10ReesYbPerovB,,20-03-10ReesYbPerovC,,20-03-12ReesYbPerovA,,20-03-12ReesYbPerovB,,20-03-12ReesYbPerovReyndsPbCl2A,,20-03-12ReesYbPerovReyndsPbCl2B,,20-03-12ReesYbPerovReyndsPbCl2C,
Wavelength (nm),Abs,Wavelength (nm),Abs,Wavelength (nm),Abs,Wavelength (nm),Abs,Wavelength (nm),Abs,Wavelength (nm),Abs,Wavelength (nm),Abs,Wavelength (nm),Abs,Wavelength (nm),Abs,Wavelength (nm),Abs,Wavelength (nm),Abs
450,0.124478594,450,0.197012961,450,0.095723659,450,0.065932579,450,0.120574072,450,0.130885929,450,0.119394571,450,0.162018776,450,0.100533716,450,0.109544359,450,0.149542272
449.6669922,0.124442287,449.6669922,0.197373912,449.6669922,0.095921867,449.6669922,0.065856896,449.6669922,0.120606534,449.6669922,0.131118745,449.6669922,0.119555175,449.6669922,0.162178859,449.6669922,0.100761458,449.6669922,0.109687962,449.6669922,0.149686769
449.3340149,0.124347523,449.3340149,0.197893873,449.3340149,0.096195787,449.3340149,0.066143356,449.3340149,0.120677792,449.3340149,0.131240606,449.3340149,0.119662158,449.3340149,0.162413731,449.3340149,0.101038478,449.3340149,0.110002622,449.3340149,0.150073186
449.0010071,0.124395371,449.0010071,0.198033497,449.0010071,0.096158795,449.0010071,0.066027917,449.0010071,0.12046539,449.0010071,0.131430417,449.0010071,0.11963287,449.0010071,0.162486047,449.0010071,0.100874655,449.0010071,0.10994713,449.0010071,0.150173321
448.6679993,0.124294445,448.6679993,0.198525414,448.6679993,0.096558556,448.6679993,0.066046573,448.6679993,0.120802932,448.6679993,0.131588027,448.6679993,0.119908415,448.6679993,0.162756518,448.6679993,0.101310059,448.6679993,0.110286705,448.6679993,0.150424779
448.3349915,0.124081828,448.3349915,0.199045166,448.3349915,0.096997999,448.3349915,0.066235036,448.3349915,0.120867588,448.3349915,0.131865263,448.3349915,0.12012402,448.3349915,0.162894353,448.3349915,0.101530127,448.3349915,0.110565029,448.3349915,0.150817454
448.0020142,0.12414135,448.0020142,0.19914043,448.0020142,0.097031623,448.0020142,0.066029005,448.0020142,0.120891452,448.0020142,0.132019848,448.0020142,0.120109171,448.0020142,0.163090751,448.0020142,0.101466656,448.0020142,0.110604599,448.0020142,0.15092741
447.6690063,0.123921782,447.6690063,0.199773163,447.6690063,0.097512789,447.6690063,0.066151224,447.6690063,0.121235855,447.6690063,0.132341072,447.6690063,0.120536894,447.6690063,0.16335018,447.6690063,0.101916269,447.6690063,0.110969916,447.6690063,0.15134868
447.3359985,0.123679675,447.3359985,0.200265914,447.3359985,0.097871214,447.3359985,0.066551737,447.3359985,0.121498175,447.3359985,0.13275592,447.3359985,0.120806657,447.3359985,0.163681552,447.3359985,0.102109075,447.3359985,0.111416727,447.3359985,0.151741982
447.0029907,0.123660028,447.0029907,0.200547829,447.0029907,0.098142408,447.0029907,0.066518754,447.0029907,0.121802524,447.0029907,0.132938251,447.0029907,0.121096157,447.0029907,0.164031908,447.0029907,0.10231854,447.0029907,0.111440718,447.0029907,0.151963592
446.6700134,0.123483695,446.6700134,0.201183617,446.6700134,0.098596253,446.6700134,0.066806979,446.6700134,0.122201532,446.6700134,0.133295611,446.6700134,0.121423706,446.6700134,0.16418992,446.6700134,0.102746666,446.6700134,0.11183092,446.6700134,0.152260691
446.3370056,0.123251386,446.3370056,0.201639384,446.3370056,0.098952383,446.3370056,0.067180142,446.3370056,0.122247122,446.3370056,0.133612752,446.3370056,0.121704228,446.3370056,0.164616689,446.3370056,0.103031553,446.3370056,0.112267591,446.3370056,0.152837992
446.0039978,0.123205803,446.0039978,0.20182614,446.0039978,0.09926378,446.0039978,0.067239642,446.0039978,0.122567542,446.0039978,0.133959636,446.0039978,0.121880561,446.0039978,0.164835855,446.0039978,0.103241503,446.0039978,0.11242082,446.0039978,0.153004602
445.67099,0.122987561,445.67099,0.202334836,445.67099,0.099681415,445.67099,0.067576617,445.67099,0.122715727,445.67099,0.134289324,445.67099,0.122254252,445.67099,0.165220201,445.67099,0.103650726,445.67099,0.112707093,445.67099,0.15341787
445.3380127,0.122862816,445.3380127,0.202721089,445.3380127,0.09991923,445.3380127,0.067773521,445.3380127,0.122732721,445.3380127,0.134473026,445.3380127,0.12257719,445.3380127,0.165593371,445.3380127,0.103941336,445.3380127,0.113034487,445.3380127,0.153703734
445.0050049,0.122866012,445.0050049,0.202931762,445.0050049,0.100057662,445.0050049,0.06776765,445.0050049,0.122915134,445.0050049,0.134570912,445.0050049,0.122600086,445.0050049,0.165724382,445.0050049,0.104069769,445.0050049,0.11299926,445.0050049,0.153895915
444.6719971,0.12286114,444.6719971,0.203167349,444.6719971,0.100305148,444.6719971,0.067724019,444.6719971,0.122690417,444.6719971,0.134663373,444.6719971,0.122729078,444.6719971,0.165857777,444.6719971,0.104321361,444.6719971,0.113273718,444.6719971,0.153976575
444.3389893,0.122736357,444.3389893,0.203505367,444.3389893,0.10053274,444.3389893,0.067843206,444.3389893,0.122946642,444.3389893,0.134987295,444.3389893,0.12298502,444.3389893,0.166086152,444.3389893,0.104444906,444.3389893,0.113581099,444.3389893,0.154261693
444.006012,0.122756176,444.006012,0.20378533,444.006012,0.100716732,444.006012,0.067738995,444.006012,0.123053782,444.006012,0.135079861,444.006012,0.12306869,444.006012,0.166233331,444.006012,0.104517445,444.006012,0.113407403,444.006012,0.154425666
443.6730042,0.122776337,443.6730042,0.204092354,443.6730042,0.100802593,443.6730042,0.067584902,443.6730042,0.122974984,443.6730042,0.135320664,443.6730042,0.123167299,443.6730042,0.166232407,443.6730042,0.10472627,443.6730042,0.113738686,443.6730042,0.154486924
443.3399963,0.122936577,443.3399963,0.204154655,443.3399963,0.100706548,443.3399963,0.067424059,443.3399963,0.123114161,443.3399963,0.135251954,443.3399963,0.123085119,443.3399963,0.166148797,443.3399963,0.104536146,443.3399963,0.113710336,443.3399963,0.154508084
443.0069885,0.122977085,443.0069885,0.204565495,443.0069885,0.10084556,443.0069885,0.067311943,443.0069885,0.123078317,443.0069885,0.135426402,443.0069885,0.12304797,443.0069885,0.166284084,443.0069885,0.104614429,443.0069885,0.113660052,443.0069885,0.154584169
442.6740112,0.122957192,442.6740112,0.205017179,442.6740112,0.101163872,442.6740112,0.067353107,442.6740112,0.123162799,442.6740112,0.13569811,442.6740112,0.123272255,442.6740112,0.166248739,442.6740112,0.104821421,442.6740112,0.114023477,442.6740112,0.154786646
442.3410034,0.12325909,442.3410034,0.20505856,442.3410034,0.10092514,442.3410034,0.067349479,442.3410034,0.123121381,442.3410034,0.135588661,442.3410034,0.123028725,442.3410034,0.166176125,442.3410034,0.104525253,442.3410034,0.113754831,442.3410034,0.154754922
442.0079956,0.123338245,442.0079956,0.205450073,442.0079956,0.100961037,442.0079956,0.067212626,442.0079956,0.122984849,442.0079956,0.135627776,442.0079956,0.123028971,442.0079956,0.166370183,442.0079956,0.104585052,442.0079956,0.113843918,442.0079956,0.154740542
441.6749878,0.123446748,441.6749878,0.20579049,441.6749878,0.101029433,441.6749878,0.067281865,441.6749878,0.122905448,441.6749878,0.135624096,441.6749878,0.123113133,441.6749878,0.166277245,441.6749878,0.104601324,441.6749878,0.113946103,441.6749878,0.154639348
441.3420105,0.123580851,441.3420105,0.205951184,441.3420105,0.101046547,441.3420105,0.067199029,441.3420105,0.122747935,441.3420105,0.13553825,441.3420105,0.122905761,441.3420105,0.166419312,441.3420105,0.104624875,441.3420105,0.1139246,441.3420105,0.154746711
441.0090027,0.123739906,441.0090027,0.206220985,441.0090027,0.101012968,441.0090027,0.066981092,441.0090027,0.122615188,441.0090027,0.135429263,441.0090027,0.122938462,441.0090027,0.166424438,441.0090027,0.104593121,441.0090027,0.113789953,441.0090027,0.154643148
440.6759949,0.123682946,440.6759949,0.206601515,440.6759949,0.101305872,440.6759949,0.067057908,440.6759949,0.122571871,440.6759949,0.135787875,440.6759949,0.123098455,440.6759949,0.166563109,440.6759949,0.104917228,440.6759949,0.1140806,440.6759949,0.154869422
440.3429871,0.123840317,440.3429871,0.206750989,440.3429871,0.101274297,440.3429871,0.066884458,440.3429871,0.122433826,440.3429871,0.135665461,440.3429871,0.122982062,440.3429871,0.166539565,440.3429871,0.104835331,440.3429871,0.11403627,440.3429871,0.154941976
440.0100098,0.123798043,440.0100098,0.207103074,440.0100098,0.101548046,440.0100098,0.066739962,440.0100098,0.1225949,440.0100098,0.135854304,440.0100098,0.12306203,440.0100098,0.166760758,440.0100098,0.105052412,440.0100098,0.114221163,440.0100098,0.154853597
439.677002,0.123680189,439.677002,0.207580119,439.677002,0.101938456,439.677002,0.066872619,439.677002,0.122831285,439.677002,0.136265874,439.677002,0.123366751,439.677002,0.16694732,439.677002,0.105325162,439.677002,0.114454478,439.677002,0.155174553
439.3439941,0.123650663,439.3439941,0.207777679,439.3439941,0.102167986,439.3439941,0.066818938,439.3439941,0.122883909,439.3439941,0.136377171,439.3439941,0.123500586,439.3439941,0.167144999,439.3439941,0.105388999,439.3439941,0.11459668,439.3439941,0.155405298
439.0109863,0.123575173,439.0109863,0.208233357,439.0109863,0.102450892,439.0109863,0.0667831,439.0109863,0.123148158,439.0109863,0.136706427,439.0109863,0.123657137,439.0109863,0.167362884,439.0109863,0.105593689,439.0109863,0.11483229,439.0109863,0.155464575
438.678009,0.123291098,438.678009,0.208846793,438.678009,0.103119806,438.678009,0.067218311,438.678009,0.123409979,438.678009,0.137093455,438.678009,0.124064468,438.678009,0.167592123,438.678009,0.10597232,438.678009,0.115317367,438.678009,0.155955732
438.3450012,0.123143964,438.3450012,0.209222287,438.3450012,0.103322901,438.3450012,0.067395493,438.3450012,0.12360514,438.3450012,0.137345821,438.3450012,0.124296345,438.3450012,0.167936549,438.3450012,0.106217116,438.3450012,0.115470655,438.3450012,0.156291932
438.0119934,0.12295001,438.0119934,0.20975551,438.0119934,0.103833415,438.0119934,0.067649089,438.0119934,0.123937689,438.0119934,0.137805775,438.0119934,0.124512412,438.0119934,0.168359667,438.0119934,0.106603414,438.0119934,0.11593964,438.0119934,0.156621203
437.6789856,0.122867115,437.6789856,0.210307986,437.6789856,0.104241259,437.6789856,0.067870475,437.6789856,0.123962209,437.6789856,0.137762934,437.6789856,0.124900147,437.6789856,0.168401927,437.6789856,0.106855147,437.6789856,0.116199553,437.6789856,0.156895652
437.3460083,0.122577153,437.3460083,0.21094203,437.3460083,0.104824945,437.3460083,0.068279363,437.3460083,0.124226078,437.3460083,0.138252825,437.3460083,0.125130087,437.3460083,0.168915853,437.3460083,0.10720712,437.3460083,0.116532199,437.3460083,0.157404602
437.0130005,0.122483864,437.0130005,0.211298868,437.0130005,0.105095737,437.0130005,0.068266429,437.0130005,0.124314405,437.0130005,0.138447925,437.0130005,0.125198573,437.0130005,0.169319436,437.0130005,0.107390821,437.0130005,0.116793387,437.0130005,0.157587856
436.6799927,0.122096017,436.6799927,0.212177455,436.6799927,0.105771951,436.6799927,0.068737879,436.6799927,0.124771647,436.6799927,0.138963938,436.6799927,0.125709817,436.6799927,0.169766739,436.6799927,0.108017169,436.6799927,0.117378943,436.6799927,0.158180982
436.3469849,0.122036152,436.3469849,0.21255073,436.3469849,0.106122613,436.3469849,0.06867329,436.3469849,0.124905467,436.3469849,0.139210448,436.3469849,0.125768334,436.3469849,0.170007125,436.3469849,0.108233593,436.3469849,0.117386542,436.3469849,0.158363447
436.0140076,0.12198215,436.0140076,0.213068485,436.0140076,0.106314383,436.0140076,0.068616927,436.0140076,0.125100881,436.0140076,0.139532253,436.0140076,0.12588872,436.0140076,0.170326233,436.0140076,0.10836374,436.0140076,0.11771939,436.0140076,0.158532366
435.6809998,0.12170402,435.6809998,0.21376504,435.6809998,0.107046649,435.6809998,0.068928875,435.6809998,0.125343993,435.6809998,0.139965683,435.6809998,0.126301542,435.6809998,0.170597091,435.6809998,0.109025993,435.6809998,0.118211165,435.6809998,0.159135997
435.3479919,0.12167874,435.3479919,0.214362398,435.3479919,0.107121773,435.3479919,0.068850458,435.3479919,0.125499725,435.3479919,0.140297592,435.3479919,0.126365364,435.3479919,0.170775145,435.3479919,0.109040834,435.3479919,0.118333325,435.3479919,0.159246504
435.0150146,0.121720292,435.0150146,0.214773968,435.0150146,0.107348129,435.0150146,0.068765931,435.0150146,0.125501514,435.0150146,0.140374377,435.0150146,0.126361892,435.0150146,0.170880064,435.0150146,0.10912516,435.0150146,0.118359804,435.0150146,0.159374163
434.6820068,0.121482253,434.6820068,0.215552151,434.6820068,0.107854806,434.6820068,0.069041297,434.6820068,0.125674099,434.6820068,0.140666366,434.6820068,0.126667798,434.6820068,0.171145678,434.6820068,0.109535769,434.6820068,0.118783325,434.6820068,0.159716159
434.348999,0.121793546,434.348999,0.21575205,434.348999,0.107768074,434.348999,0.068806753,434.348999,0.125452653,434.348999,0.140546069,434.348999,0.126395211,434.348999,0.170829356,434.348999,0.109340772,434.348999,0.11853794,434.348999,0.15964587
434.0159912,0.121751577,434.0159912,0.216131434,434.0159912,0.108170331,434.0159912,0.068887562,434.0159912,0.125571609,434.0159912,0.140741855,434.0159912,0.126493812,434.0159912,0.171145558,434.0159912,0.10928826,434.0159912,0.118752629,434.0159912,0.159907013
433.6830139,0.121765658,433.6830139,0.216756254,433.6830139,0.108413607,433.6830139,0.068928272,433.6830139,0.12547563,433.6830139,0.140868545,433.6830139,0.126671508,433.6830139,0.171182767,433.6830139,0.109657571,433.6830139,0.118957043,433.6830139,0.160103336
433.3500061,0.122112095,433.3500061,0.216841936,433.3500061,0.108222768,433.3500061,0.068737268,433.3500061,0.125363469,433.3500061,0.14043808,433.3500061,0.126217172,433.3500061,0.170918852,433.3500061,0.109388255,433.3500061,0.118674412,433.3500061,0.159989581
433.0169983,0.122160651,433.0169983,0.217223004,433.0169983,0.10850811,433.0169983,0.06859377,433.0169983,0.12534067,433.0169983,0.140670851,433.0169983,0.126351506,433.0169983,0.171153814,433.0169983,0.109463252,433.0169983,0.118780024,433.0169983,0.160180822
432.6839905,0.122179829,432.6839905,0.217853069,432.6839905,0.108877257,432.6839905,0.068551451,432.6839905,0.125310481,432.6839905,0.140656456,432.6839905,0.12638697,432.6839905,0.171219006,432.6839905,0.109607458,432.6839905,0.118928209,432.6839905,0.160265878
432.3510132,0.12244083,432.3510132,0.217846617,432.3510132,0.108834453,432.3510132,0.068412036,432.3510132,0.12519218,432.3510132,0.140569687,432.3510132,0.126194745,432.3510132,0.171185061,432.3510132,0.109455824,432.3510132,0.118903466,432.3510132,0.160355434
432.0180054,0.122458018,432.0180054,0.218276367,432.0180054,0.10896764,432.0180054,0.068176165,432.0180054,0.125341848,432.0180054,0.14078559,432.0180054,0.126162827,432.0180054,0.171475917,432.0180054,0.109659836,432.0180054,0.118918814,432.0180054,0.160336226
431.6849976,0.12247508,431.6849976,0.218848452,431.6849976,0.109322622,431.6849976,0.068189673,431.6849976,0.125118494,431.6849976,0.140842274,431.6849976,0.126453012,431.6849976,0.171448141,431.6849976,0.10987778,431.6849976,0.119162023,431.6849976,0.160520315
431.3519897,0.122583643,431.3519897,0.219034955,431.3519897,0.109499693,431.3519897,0.067925498,431.3519897,0.125170946,431.3519897,0.140967771,431.3519897,0.126277626,431.3519897,0.171588644,431.3519897,0.109756313,431.3519897,0.119239412,431.3519897,0.160747021
431.0190125,0.122471683,431.0190125,0.219668314,431.0190125,0.109983809,431.0190125,0.067978047,431.0190125,0.125313759,431.0190125,0.141320735,431.0190125,0.126501679,431.0190125,0.171910226,431.0190125,0.11007569,431.0190125,0.119493,431.0190125,0.161003918
430.6860046,0.122426964,430.6860046,0.220235974,430.6860046,0.110419303,430.6860046,0.068223901,430.6860046,0.125293866,430.6860046,0.141536266,430.6860046,0.126798287,430.6860046,0.171814859,430.6860046,0.110387623,430.6860046,0.119838208,430.6860046,0.161218777
430.3529968,0.122287422,430.3529968,0.22084707,430.3529968,0.110703252,430.3529968,0.068355978,430.3529968,0.125498444,430.3529968,0.141736656,430.3529968,0.126902744,430.3529968,0.172154382,430.3529968,0.110532872,430.3529968,0.120086134,430.3529968,0.161563218
430.019989,0.122122072,430.019989,0.221602798,430.019989,0.111259244,430.019989,0.068551056,430.019989,0.125696302,430.019989,0.142146304,430.019989,0.127169132,430.019989,0.172423929,430.019989,0.11090789,430.019989,0.120408483,430.019989,0.161845356
429.6870117,0.121843308,429.6870117,0.222571984,429.6870117,0.112102494,429.6870117,0.069040418,429.6870117,0.125948116,429.6870117,0.142568946,429.6870117,0.127650261,429.6870117,0.172762841,429.6870117,0.111474782,429.6870117,0.121029481,429.6870117,0.16239439
429.3540039,0.121834844,429.3540039,0.223176897,429.3540039,0.112417162,429.3540039,0.068985008,429.3540039,0.12617363,429.3540039,0.142685026,429.3540039,0.127638772,429.3540039,0.172932804,429.3540039,0.111528389,429.3540039,0.121134847,429.3540039,0.162702784
429.0209961,0.121504515,429.0209961,0.224138856,429.0209961,0.113056049,429.0209961,0.069378361,429.0209961,0.126622275,429.0209961,0.143287063,429.0209961,0.128110275,429.0209961,0.173548847,429.0209961,0.112063892,429.0209961,0.121579818,429.0209961,0.1631044
428.6879883,0.121275455,428.6879883,0.225302979,428.6879883,0.113828845,428.6879883,0.069562353,428.6879883,0.12683171,428.6879883,0.143553793,428.6879883,0.128500328,428.6879883,0.173825011,428.6879883,0.112436011,428.6879883,0.122144401,428.6879883,0.163510606
428.355011,0.1211989,428.355011,0.225857362,428.355011,0.114208296,428.355011,0.069585867,428.355011,0.127052471,428.355011,0.143714905,428.355011,0.128523752,428.355011,0.17418316,428.355011,0.112646192,428.355011,0.122174546,428.355011,0.163745329
428.0220032,0.120709062,428.0220032,0.227107555,428.0220032,0.115244888,428.0220032,0.069944032,428.0220032,0.12753512,428.0220032,0.144549087,428.0220032,0.129160687,428.0220032,0.174951479,428.0220032,0.113346338,428.0220032,0.123009242,428.0220032,0.164474562
427.6889954,0.120655745,427.6889954,0.228074282,427.6889954,0.115704984,427.6889954,0.070063137,427.6889954,0.127664059,427.6889954,0.144467801,427.6889954,0.129239574,427.6889954,0.175129354,427.6889954,0.113637425,427.6889954,0.123200059,427.6889954,0.164742827
427.3559875,0.120551691,427.3559875,0.228779048,427.3559875,0.116285995,427.3559875,0.070024721,427.3559875,0.12770097,427.3559875,0.144771606,427.3559875,0.12942937,427.3559875,0.175529093,427.3559875,0.113922954,427.3559875,0.123506606,427.3559875,0.165186197
427.0230103,0.12024723,427.0230103,0.229883879,427.0230103,0.117099509,427.0230103,0.070336796,427.0230103,0.128145874,427.0230103,0.145317867,427.0230103,0.129846454,427.0230103,0.175956219,427.0230103,0.114340283,427.0230103,0.123928048,427.0230103,0.165525883
426.6900024,0.120333858,426.6900024,0.230555236,426.6900024,0.117464736,426.6900024,0.070352957,426.6900024,0.12795274,426.6900024,0.145244911,426.6900024,0.129776582,426.6900024,0.175839588,426.6900024,0.114573494,426.6900024,0.124022923,426.6900024,0.165749446
426.3569946,0.120215133,426.3569946,0.231263027,426.3569946,0.118028574,426.3569946,0.070476279,426.3569946,0.128214315,426.3569946,0.145640031,426.3569946,0.129875422,426.3569946,0.176244766,426.3569946,0.114868775,426.3569946,0.124248132,426.3569946,0.166119844
426.0239868,0.120219059,426.0239868,0.23204574,426.0239868,0.118603855,426.0239868,0.070585474,426.0239868,0.128300011,426.0239868,0.1458022,426.0239868,0.129962534,426.0239868,0.176306099,426.0239868,0.115130447,426.0239868,0.124368824,426.0239868,0.166369692
425.6910095,0.120444216,425.6910095,0.23271209,425.6910095,0.119064122,425.6910095,0.070611976,425.6910095,0.128202319,425.6910095,0.145792961,425.6910095,0.129962996,425.6910095,0.176091477,425.6910095,0.115190819,425.6910095,0.124544032,425.6910095,0.16650705
425.3580017,0.120489374,425.3580017,0.233382464,425.3580017,0.11947006,425.3580017,0.070540071,425.3580017,0.128343284,425.3580017,0.146117732,425.3580017,0.130005032,425.3580017,0.176364303,425.3580017,0.115256332,425.3580017,0.124634422,425.3580017,0.166854978
425.0249939,0.120657489,425.0249939,0.233906195,425.0249939,0.119905517,425.0249939,0.070448458,425.0249939,0.128326967,425.0249939,0.146082982,425.0249939,0.12995632,425.0249939,0.176154122,425.0249939,0.115370534,425.0249939,0.124675021,425.0249939,0.166864067
424.6919861,0.120789528,424.6919861,0.234766796,424.6919861,0.12048538,424.6919861,0.070235573,424.6919861,0.128183678,424.6919861,0.146137163,424.6919861,0.129975274,424.6919861,0.176193997,424.6919861,0.115479164,424.6919861,0.124876753,424.6919861,0.16701223
424.3590088,0.120801732,424.3590088,0.235606521,424.3590088,0.121049628,424.3590088,0.070107482,424.3590088,0.128339455,424.3590088,0.146327972,424.3590088,0.129998505,424.3590088,0.176584348,424.3590088,0.115689099,424.3590088,0.125025377,424.3590088,0.16731444
424.026001,0.121066563,424.026001,0.236204326,424.026001,0.121613145,424.026001,0.069987856,424.026001,0.128056347,424.026001,0.14617826,424.026001,0.130020157,424.026001,0.176407233,424.026001,0.115619272,424.026001,0.125112131,424.026001,0.167383283
423.6929932,0.121013612,423.6929932,0.237389937,423.6929932,0.122334562,423.6929932,0.069845758,423.6929932,0.128007233,423.6929932,0.146474078,423.6929932,0.130159363,423.6929932,0.176757097,423.6929932,0.116002791,423.6929932,0.125456005,423.6929932,0.16778107
423.3599854,0.121352881,423.3599854,0.238199636,423.3599854,0.122641355,423.3599854,0.069610387,423.3599854,0.127807871,423.3599854,0.146194384,423.3599854,0.130000904,423.3599854,0.176675469,423.3599854,0.11585591,423.3599854,0.125333592,423.3599854,0.167833567
423.0270081,0.121408708,423.0270081,0.23939988,423.0270081,0.12345019,423.0270081,0.069531821,423.0270081,0.127714455,423.0270081,0.146261588,423.0270081,0.130048618,423.0270081,0.176868722,423.0270081,0.116108201,423.0270081,0.125743359,423.0270081,0.168146461
422.6940002,0.121342503,422.6940002,0.24074465,422.6940002,0.124498107,422.6940002,0.069703624,422.6940002,0.127885878,422.6940002,0.146487936,422.6940002,0.130342037,422.6940002,0.177047297,422.6940002,0.116556816,422.6940002,0.126041532,422.6940002,0.168665841
422.3609924,0.121389709,422.3609924,0.242023259,422.3609924,0.125232726,422.3609924,0.069712684,422.3609924,0.128010958,422.3609924,0.146562219,422.3609924,0.130457446,422.3609924,0.177206636,422.3609924,0.116784111,422.3609924,0.126295582,422.3609924,0.169012874
422.0279846,0.121173441,422.0279846,0.243632004,422.0279846,0.126409128,422.0279846,0.070022069,422.0279846,0.128536284,422.0279846,0.147019908,422.0279846,0.130825967,422.0279846,0.177486941,422.0279846,0.117286183,422.0279846,0.126878887,422.0279846,0.169514701
421.6950073,0.12111678,421.6950073,0.245300189,421.6950073,0.127459988,421.6950073,0.07016322,421.6950073,0.128515646,421.6950073,0.147365987,421.6950073,0.131087035,421.6950073,0.177697182,421.6950073,0.117762469,421.6950073,0.12729831,421.6950073,0.170067474
421.3619995,0.121097624,421.3619995,0.24692142,421.3619995,0.128565729,421.3619995,0.070275411,421.3619995,0.128999919,421.3619995,0.147565514,421.3619995,0.131272331,421.3619995,0.178011268,421.3619995,0.118125327,421.3619995,0.127700523,421.3619995,0.170672715
421.0289917,0.120972298,421.0289917,0.248619467,421.0289917,0.129911557,421.0289917,0.070470162,421.0289917,0.129141629,421.0289917,0.14808014,421.0289917,0.131539658,421.0289917,0.178234488,421.0289917,0.118610866,421.0289917,0.128162608,421.0289917,0.171205804
420.6960144,0.120599292,420.6960144,0.250745118,420.6960144,0.131595209,420.6960144,0.070772417,420.6960144,0.129550159,420.6960144,0.148641199,420.6960144,0.132227123,420.6960144,0.179031447,420.6960144,0.119362779,420.6960144,0.129019454,420.6960144,0.172073618
420.3630066,0.12054202,420.3630066,0.252369434,420.3630066,0.133058876,420.3630066,0.070865534,420.3630066,0.129892945,420.3630066,0.148903936,420.3630066,0.132338122,420.3630066,0.179306701,420.3630066,0.119746283,420.3630066,0.12928088,420.3630066,0.172713593
420.0299988,0.120194957,420.0299988,0.254814267,420.0299988,0.134903058,420.0299988,0.071238056,420.0299988,0.130155072,420.0299988,0.149633125,420.0299988,0.13287279,420.0299988,0.180138201,420.0299988,0.120611012,420.0299988,0.129968539,420.0299988,0.17360273
419.696991,0.119850487,419.696991,0.257131487,419.696991,0.136895329,419.696991,0.071612976,419.696991,0.130597606,419.696991,0.14994517,419.696991,0.133423075,419.696991,0.180719659,419.696991,0.121434696,419.696991,0.130937025,419.696991,0.174639061
419.3640137,0.119818255,419.3640137,0.259150177,419.3640137,0.138667852,419.3640137,0.07158538,419.3640137,0.130870119,419.3640137,0.150309235,419.3640137,0.133523956,419.3640137,0.181165278,419.3640137,0.121919833,419.3640137,0.131334186,419.3640137,0.17524378
419.0310059,0.119547777,419.0310059,0.261810988,419.0310059,0.141063616,419.0310059,0.072078109,419.0310059,0.13114284,419.0310059,0.15096131,419.0310059,0.134044364,419.0310059,0.181749255,419.0310059,0.12291909,419.0310059,0.131994546,419.0310059,0.176151082
418.697998,0.119410589,418.697998,0.264376819,418.697998,0.143047392,418.697998,0.072409868,418.697998,0.13153328,418.697998,0.151123345,418.697998,0.134379372,418.697998,0.182113037,418.697998,0.123626441,418.697998,0.132758766,418.697998,0.176995277
418.3649902,0.119389765,418.3649902,0.266940564,418.3649902,0.145420387,418.3649902,0.072417818,418.3649902,0.131855935,418.3649902,0.151406631,418.3649902,0.134402856,418.3649902,0.18249251,418.3649902,0.124216981,418.3649902,0.133179516,418.3649902,0.177921146
418.0320129,0.119276002,418.0320129,0.269987047,418.0320129,0.148116767,418.0320129,0.072789535,418.0320129,0.13220638,418.0320129,0.151935831,418.0320129,0.134862706,418.0320129,0.182793245,418.0320129,0.125048339,418.0320129,0.134037599,418.0320129,0.178713426
417.6990051,0.119271196,417.6990051,0.273260266,417.6990051,0.151175633,417.6990051,0.072923683,417.6990051,0.132507414,417.6990051,0.152072221,417.6990051,0.135167196,417.6990051,0.183119074,417.6990051,0.126032114,417.6990051,0.134768039,417.6990051,0.179805979
417.3659973,0.119579613,417.3659973,0.276281893,417.3659973,0.153703958,417.3659973,0.072650649,417.3659973,0.132439941,417.3659973,0.152200356,417.3659973,0.135195866,417.3659973,0.183119074,417.3659973,0.126395315,417.3659973,0.135197237,417.3659973,0.180455923
417.0329895,0.119521968,417.0329895,0.280360758,417.0329895,0.157427788,417.0329895,0.072805025,417.0329895,0.132942855,417.0329895,0.152519941,417.0329895,0.135507345,417.0329895,0.18362473,417.0329895,0.127410099,417.0329895,0.136029929,417.0329895,0.181654185
416.7000122,0.119608559,416.7000122,0.284026593,416.7000122,0.161171764,416.7000122,0.072860189,416.7000122,0.133065984,416.7000122,0.152737945,416.7000122,0.135866344,416.7000122,0.183900699,416.7000122,0.128268942,416.7000122,0.137004688,416.7000122,0.182717055
416.3670044,0.119804539,416.3670044,0.288369834,416.3670044,0.165357351,416.3670044,0.072638318,416.3670044,0.133106113,416.3670044,0.153164908,416.3670044,0.135927051,416.3670044,0.184352413,416.3670044,0.129160419,416.3670044,0.137749985,416.3670044,0.18389678
416.0339966,0.119911283,416.0339966,0.293060392,416.0339966,0.170138285,416.0339966,0.072708793,416.0339966,0.133286044,416.0339966,0.153396428,416.0339966,0.136324838,416.0339966,0.184841394,416.0339966,0.130382642,416.0339966,0.138634369,416.0339966,0.185211629
415.7009888,0.120117873,415.7009888,0.298019916,415.7009888,0.17559281,415.7009888,0.072676234,415.7009888,0.133488536,415.7009888,0.153692335,415.7009888,0.136567637,415.7009888,0.185098395,415.7009888,0.13147606,415.7009888,0.139825895,415.7009888,0.18681857
415.3680115,0.120148152,415.3680115,0.303548008,415.3680115,0.181757033,415.3680115,0.072877057,415.3680115,0.133985162,415.3680115,0.154252276,415.3680115,0.136989221,415.3680115,0.18586576,415.3680115,0.133000791,415.3680115,0.141071856,415.3680115,0.188836485
415.0350037,0.120276183,415.0350037,0.309306353,415.0350037,0.188749641,415.0350037,0.073116533,415.0350037,0.134340107,415.0350037,0.154644445,415.0350037,0.137636572,415.0350037,0.186434105,415.0350037,0.134726703,415.0350037,0.142496243,415.0350037,0.190799072
414.7019958,0.120318353,414.7019958,0.315492034,414.7019958,0.196586326,414.7019958,0.073307753,414.7019958,0.134913832,414.7019958,0.155148327,414.7019958,0.138163865,414.7019958,0.186997026,414.7019958,0.13660036,414.7019958,0.144049943,414.7019958,0.19322519
414.368988,0.12035992,414.368988,0.321785986,414.368988,0.205299377,414.368988,0.073486298,414.368988,0.135800868,414.368988,0.155799776,414.368988,0.13883239,414.368988,0.1878189,414.368988,0.138726279,414.368988,0.145703241,414.368988,0.195915178
414.0360107,0.120280929,414.0360107,0.328928411,414.0360107,0.21562618,414.0360107,0.07390327,414.0360107,0.136549175,414.0360107,0.156825811,414.0360107,0.139889807,414.0360107,0.188734055,414.0360107,0.141591355,414.0360107,0.148012698,414.0360107,0.199178636
413.7030029,0.120184615,413.7030029,0.335672706,413.7030029,0.226455808,413.7030029,0.074431702,413.7030029,0.137379736,413.7030029,0.157614648,413.7030029,0.14083916,413.7030029,0.189703435,413.7030029,0.144348547,413.7030029,0.150169194,413.7030029,0.202769756
413.3699951,0.120103166,413.3699951,0.342795163,413.3699951,0.238960937,413.3699951,0.07484623,413.3699951,0.138561532,413.3699951,0.158665851,413.3699951,0.14185819,413.3699951,0.190964878,413.3699951,0.147629961,413.3699951,0.152848348,413.3699951,0.206811503
413.0369873,0.119830944,413.0369873,0.349739969,413.0369873,0.251922041,413.0369873,0.075442232,413.0369873,0.139489055,413.0369873,0.159695968,413.0369873,0.143296644,413.0369873,0.192176834,413.0369873,0.151385427,413.0369873,0.155727923,413.0369873,0.211139992
412.70401,0.119714089,412.70401,0.356539726,412.70401,0.266306818,412.70401,0.076098889,412.70401,0.140734762,412.70401,0.161016017,412.70401,0.144506335,412.70401,0.193624362,412.70401,0.155338511,412.70401,0.158956572,412.70401,0.216055304
412.3710022,0.119444124,412.3710022,0.362395823,412.3710022,0.28044346,412.3710022,0.076742761,412.3710022,0.142131403,412.3710022,0.162486345,412.3710022,0.145981088,412.3710022,0.195494846,412.3710022,0.159417689,412.3710022,0.16220443,412.3710022,0.221039727
412.0379944,0.119126946,412.0379944,0.368455976,412.0379944,0.29586792,412.0379944,0.077652812,412.0379944,0.143410757,412.0379944,0.164076552,412.0379944,0.147871748,412.0379944,0.197183609,412.0379944,0.164142579,412.0379944,0.165926203,412.0379944,0.226787403
411.7049866,0.119042806,411.7049866,0.373139262,411.7049866,0.310131759,411.7049866,0.078476109,411.7049866,0.144742951,411.7049866,0.165646032,411.7049866,0.149161473,411.7049866,0.19895716,411.7049866,0.168785021,411.7049866,0.169396281,411.7049866,0.232205838
411.3720093,0.118735276,411.3720093,0.377530277,411.3720093,0.324834228,411.3720093,0.07919082,411.3720093,0.146292701,411.3720093,0.167512626,411.3720093,0.150864497,411.3720093,0.200773537,411.3720093,0.173873916,411.3720093,0.173394188,411.3720093,0.238235563
411.0390015,0.118471496,411.0390015,0.38092503,411.0390015,0.33790645,411.0390015,0.080248065,411.0390015,0.147654429,411.0390015,0.169258848,411.0390015,0.152764067,411.0390015,0.202446714,411.0390015,0.178814769,411.0390015,0.177082166,411.0390015,0.24375917
410.7059937,0.118428581,410.7059937,0.383215904,410.7059937,0.349462032,410.7059937,0.080748953,410.7059937,0.148985028,410.7059937,0.170723826,410.7059937,0.154134721,410.7059937,0.2040191,410.7059937,0.18355231,410.7059937,0.180532575,410.7059937,0.249126539
410.3729858,0.118428715,410.3729858,0.385132492,410.3729858,0.359037012,410.3729858,0.08130651,410.3729858,0.150175601,410.3729858,0.172284141,410.3729858,0.1555769,410.3729858,0.205314323,410.3729858,0.187938899,410.3729858,0.183662534,410.3729858,0.254061163
410.0400085,0.118300177,410.0400085,0.386282176,410.0400085,0.366508663,410.0400085,0.081980854,410.0400085,0.151158437,410.0400085,0.173774451,410.0400085,0.156942651,410.0400085,0.206682876,410.0400085,0.192280039,410.0400085,0.18674852,410.0400085,0.258591831
409.7070007,0.118292563,409.7070007,0.386772454,409.7070007,0.371646941,409.7070007,0.082417108,409.7070007,0.152174696,409.7070007,0.175096273,409.7070007,0.158317551,409.7070007,0.207849622,409.7070007,0.19610396,409.7070007,0.189466879,409.7070007,0.262500107
409.3739929,0.118417263,409.3739929,0.386957288,409.3739929,0.374439567,409.3739929,0.082675688,409.3739929,0.152827442,409.3739929,0.176141501,409.3739929,0.159147531,409.3739929,0.208745599,409.3739929,0.199012086,409.3739929,0.191366524,409.3739929,0.26547733
409.0409851,0.118474111,409.0409851,0.3865152,409.0409851,0.375196099,409.0409851,0.082903527,409.0409851,0.153348148,409.0409851,0.176991269,409.0409851,0.159972668,409.0409851,0.209480643,409.0409851,0.20163472,409.0409851,0.193059698,409.0409851,0.267768771
408.7080078,0.118551992,408.7080078,0.38564834,408.7080078,0.373574674,408.7080078,0.083057195,408.7080078,0.153689727,408.7080078,0.177714333,408.7080078,0.160639837,408.7080078,0.210056573,408.7080078,0.203641087,408.7080078,0.194219142,408.7080078,0.269307286
408.375,0.118763246,408.375,0.384444654,408.375,0.370404869,408.375,0.083055131,408.375,0.153799295,408.375,0.178301841,408.375,0.161126494,408.375,0.210459724,408.375,0.204951614,408.375,0.194826827,408.375,0.270261943
408.0419922,0.118841447,408.0419922,0.383340031,408.0419922,0.366185695,408.0419922,0.083090045,408.0419922,0.153917491,408.0419922,0.17875737,408.0419922,0.16143699,408.0419922,0.210680038,408.0419922,0.20556812,408.0419922,0.195205167,408.0419922,0.270441532
407.7089844,0.119138971,407.7089844,0.381426841,407.7089844,0.360296428,407.7089844,0.082917623,407.7089844,0.153732091,407.7089844,0.178757176,407.7089844,0.161475807,407.7089844,0.210573122,407.7089844,0.205686688,407.7089844,0.195035905,407.7089844,0.270054877
407.3760071,0.11924132,407.3760071,0.379863352,407.3760071,0.354227305,407.3760071,0.082675785,407.3760071,0.153710038,407.3760071,0.179108039,407.3760071,0.161395282,407.3760071,0.210608691,407.3760071,0.205644578,407.3760071,0.194672719,407.3760071,0.269364178
407.0429993,0.119193398,407.0429993,0.378123313,407.0429993,0.347139657,407.0429993,0.082831815,407.0429993,0.153690904,407.0429993,0.179341093,407.0429993,0.161602497,407.0429993,0.210481823,407.0429993,0.205423191,407.0429993,0.194288254,407.0429993,0.268294662
406.7099915,0.119364351,406.7099915,0.375920028,406.7099915,0.339831889,406.7099915,0.082585074,406.7099915,0.153416619,406.7099915,0.179238454,406.7099915,0.161402896,406.7099915,0.210236818,406.7099915,0.204480708,406.7099915,0.193547353,406.7099915,0.267031938
406.3770142,0.119423747,406.3770142,0.374070972,406.3770142,0.33226338,406.3770142,0.082372859,406.3770142,0.153302386,406.3770142,0.179207206,406.3770142,0.161028892,406.3770142,0.209915355,406.3770142,0.203495398,406.3770142,0.192577347,406.3770142,0.265343994
406.0440063,0.119189002,406.0440063,0.372036189,406.0440063,0.325107992,406.0440063,0.082532577,406.0440063,0.153145358,406.0440063,0.179319382,406.0440063,0.161246508,406.0440063,0.209827557,406.0440063,0.202670023,406.0440063,0.191922501,406.0440063,0.263767988
405.7109985,0.119155251,405.7109985,0.369923651,405.7109985,0.317829728,405.7109985,0.082295015,405.7109985,0.152910098,405.7109985,0.179065764,405.7109985,0.160960898,405.7109985,0.2095927,405.7109985,0.201458097,405.7109985,0.191179737,405.7109985,0.262135685
405.3779907,0.119042121,405.3779907,0.367871702,405.3779907,0.310684115,405.3779907,0.082318917,405.3779907,0.152856186,405.3779907,0.179065019,405.3779907,0.160853431,405.3779907,0.209269807,405.3779907,0.200408921,405.3779907,0.190169483,405.3779907,0.260488093
405.0450134,0.118834436,405.0450134,0.36590153,405.0450134,0.304214209,405.0450134,0.082573645,405.0450134,0.152684778,405.0450134,0.178972766,405.0450134,0.160803124,405.0450134,0.209334612,405.0450134,0.199270859,405.0450134,0.189573839,405.0450134,0.258899152
404.7120056,0.118735142,404.7120056,0.363723964,404.7120056,0.297473073,404.7120056,0.082393892,404.7120056,0.152604312,404.7120056,0.178742841,404.7120056,0.160462737,404.7120056,0.209332392,404.7120056,0.197894856,404.7120056,0.188723698,404.7120056,0.257281154
404.3789978,0.11835593,404.3789978,0.361955255,404.3789978,0.291498721,404.3789978,0.082476325,404.3789978,0.152712807,404.3789978,0.178987503,404.3789978,0.160515174,404.3789978,0.209329113,404.3789978,0.196893811,404.3789978,0.188180909,404.3789978,0.25590086
404.04599,0.118096449,404.04599,0.35974589,404.04599,0.285665929,404.04599,0.082767949,404.04599,0.152335465,404.04599,0.178872481,404.04599,0.160507172,404.04599,0.20947732,404.04599,0.195739746,404.04599,0.187688664,404.04599,0.254300296
403.7130127,0.118002147,403.7130127,0.357539684,403.7130127,0.280298263,403.7130127,0.082627244,403.7130127,0.152304873,403.7130127,0.178750768,403.7130127,0.160131708,403.7130127,0.20929198,403.7130127,0.194537461,403.7130127,0.18691501,403.7130127,0.252854168
403.3800049,0.117749125,403.3800049,0.355356932,403.3800049,0.275044918,403.3800049,0.08275874,403.3800049,0.15229544,403.3800049,0.17893818,403.3800049,0.160160452,403.3800049,0.2092935,403.3800049,0.193339139,403.3800049,0.186303943,403.3800049,0.251560867
403.0469971,0.117546946,403.0469971,0.353387952,403.0469971,0.270303518,403.0469971,0.082811266,403.0469971,0.152184546,403.0469971,0.178957954,403.0469971,0.159964293,403.0469971,0.209262818,403.0469971,0.192336917,403.0469971,0.185751408,403.0469971,0.250221551
402.7139893,0.117537379,402.7139893,0.35087809,402.7139893,0.265424877,402.7139893,0.082684234,402.7139893,0.152033866,402.7139893,0.178828761,402.7139893,0.159746155,402.7139893,0.208996713,402.7139893,0.191136971,402.7139893,0.185070097,402.7139893,0.248761922
402.381012,0.117418595,402.381012,0.348944664,402.381012,0.261251539,402.381012,0.082503773,402.381012,0.151792243,402.381012,0.178882092,402.381012,0.159530178,402.381012,0.208955929,402.381012,0.190030247,402.381012,0.184499174,402.381012,0.247573003
402.0480042,0.117486753,402.0480042,0.346471071,402.0480042,0.257019669,402.0480042,0.082434289,402.0480042,0.151444048,402.0480042,0.178490117,402.0480042,0.159246057,402.0480042,0.208549321,402.0480042,0.188964784,402.0480042,0.183718726,402.0480042,0.246276692
401.7149963,0.117648959,401.7149963,0.344175547,401.7149963,0.252909631,401.7149963,0.082147397,401.7149963,0.151085779,401.7149963,0.178285107,401.7149963,0.158799931,401.7149963,0.208187446,401.7149963,0.187776893,401.7149963,0.183000624,401.7149963,0.244902015
401.3819885,0.11759717,401.3819885,0.342274785,401.3819885,0.249297604,401.3819885,0.081890948,401.3819885,0.150865018,401.3819885,0.178162113,401.3819885,0.158700913,401.3819885,0.208117843,401.3819885,0.186595947,401.3819885,0.182206318,401.3819885,0.243647203
401.0490112,0.117843509,401.0490112,0.340096921,401.0490112,0.2457176,401.0490112,0.081806526,401.0490112,0.150355056,401.0490112,0.17756708,401.0490112,0.158357889,401.0490112,0.207614407,401.0490112,0.185560405,401.0490112,0.181456402,401.0490112,0.242554814
400.7160034,0.117950551,400.7160034,0.338163942,400.7160034,0.242700711,400.7160034,0.08143682,400.7160034,0.150181189,400.7160034,0.177452862,400.7160034,0.158022121,400.7160034,0.207649887,400.7160034,0.184611812,400.7160034,0.18092911,400.7160034,0.241605192
400.3829956,0.118148707,400.3829956,0.336428851,400.3829956,0.239525855,400.3829956,0.081233531,400.3829956,0.14986372,400.3829956,0.177147985,400.3829956,0.157710522,400.3829956,0.207280144,400.3829956,0.183354691,400.3829956,0.18013005,400.3829956,0.240370885
400.0499878,0.118380912,400.0499878,0.334843725,400.0499878,0.236679152,400.0499878,0.080897123,400.0499878,0.149309307,400.0499878,0.176717967,400.0499878,0.157234997,400.0499878,0.20702526,400.0499878,0.182424545,400.0499878,0.179522842,400.0499878,0.239309236
399.7170105,0.118644573,399.7170105,0.333064884,399.7170105,0.233950332,399.7170105,0.080543585,399.7170105,0.149082363,399.7170105,0.176407859,399.7170105,0.156912968,399.7170105,0.206732571,399.7170105,0.181307867,399.7170105,0.17889905,399.7170105,0.238258988
399.3840027,0.118649066,399.3840027,0.331798524,399.3840027,0.231715441,399.3840027,0.08057344,399.3840027,0.1488868,399.3840027,0.176387191,399.3840027,0.156744883,399.3840027,0.206644297,399.3840027,0.180627838,399.3840027,0.178394735,399.3840027,0.237671644
399.0509949,0.118772097,399.0509949,0.330555588,399.0509949,0.229472935,399.0509949,0.080379963,399.0509949,0.148512214,399.0509949,0.176131591,399.0509949,0.156578615,399.0509949,0.206490174,399.0509949,0.180070907,399.0509949,0.177982286,399.0509949,0.236743435
398.7179871,0.118868642,398.7179871,0.329216778,398.7179871,0.227394462,398.7179871,0.080120876,398.7179871,0.148420513,398.7179871,0.176190972,398.7179871,0.156399906,398.7179871,0.206237719,398.7179871,0.179301813,398.7179871,0.177600578,398.7179871,0.236139447
398.3850098,0.118613929,398.3850098,0.328606278,398.3850098,0.225907311,398.3850098,0.080472983,398.3850098,0.148517355,398.3850098,0.176567167,398.3850098,0.156530514,398.3850098,0.206629962,398.3850098,0.179141849,398.3850098,0.177699834,398.3850098,0.235913277
398.052002,0.118596345,398.052002,0.327707797,398.052002,0.224486008,398.052002,0.080443539,398.052002,0.148265481,398.052002,0.176472992,398.052002,0.156505048,398.052002,0.206518248,398.052002,0.178655565,398.052002,0.177680627,398.052002,0.235289663
397.7189941,0.118381769,397.7189941,0.326546222,397.7189941,0.22311601,397.7189941,0.080547109,397.7189941,0.148527116,397.7189941,0.176787928,397.7189941,0.1564264,397.7189941,0.206673205,397.7189941,0.178323776,397.7189941,0.177613944,397.7189941,0.235112846
397.3859863,0.118175857,397.3859863,0.32620883,397.3859863,0.222193763,397.3859863,0.080764636,397.3859863,0.148629025,397.3859863,0.177028194,397.3859863,0.156653792,397.3859863,0.207078338,397.3859863,0.17809166,397.3859863,0.17769146,397.3859863,0.234954879
397.053009,0.11789903,397.053009,0.325618476,397.053009,0.221282408,397.053009,0.081043601,397.053009,0.148715228,397.053009,0.177195311,397.053009,0.15684253,397.053009,0.207233414,397.053009,0.178185552,397.053009,0.177865073,397.053009,0.234729633
396.7200012,0.117595606,396.7200012,0.325081617,396.7200012,0.2203511,396.7200012,0.081246264,396.7200012,0.149138331,396.7200012,0.177622914,396.7200012,0.156953603,396.7200012,0.207749531,396.7200012,0.178040668,396.7200012,0.178123877,396.7200012,0.235049605
396.3869934,0.117333025,396.3869934,0.324858129,396.3869934,0.219846025,396.3869934,0.081544809,396.3869934,0.149499625,396.3869934,0.177951798,396.3869934,0.157284409,396.3869934,0.20822835,396.3869934,0.17811124,396.3869934,0.178365693,396.3869934,0.235007852
396.0539856,0.117112964,396.0539856,0.324452579,396.0539856,0.219299555,396.0539856,0.08182165,396.0539856,0.1494046,396.0539856,0.178176194,396.0539856,0.157426745,396.0539856,0.208462462,396.0539856,0.178062946,396.0539856,0.178556487,396.0539856,0.23496227
395.7210083,0.117224775,395.7210083,0.323756218,395.7210083,0.218391389,395.7210083,0.081673041,395.7210083,0.14950411,395.7210083,0.178043634,395.7210083,0.1571614,395.7210083,0.208452463,395.7210083,0.177703425,395.7210083,0.178368434,395.7210083,0.234746173
395.3880005,0.116899833,395.3880005,0.323751986,395.3880005,0.218062252,395.3880005,0.082135446,395.3880005,0.149713993,395.3880005,0.178610385,395.3880005,0.157639101,395.3880005,0.208782688,395.3880005,0.177786097,395.3880005,0.17856887,395.3880005,0.234859556
395.0549927,0.116867542,395.0549927,0.323570311,395.0549927,0.217666477,395.0549927,0.082361221,395.0549927,0.149678141,395.0549927,0.178678542,395.0549927,0.157673121,395.0549927,0.208858177,395.0549927,0.177772835,395.0549927,0.178689167,395.0549927,0.234592333
394.7219849,0.117004268,394.7219849,0.323278815,394.7219849,0.21693261,394.7219849,0.08206296,394.7219849,0.149651974,394.7219849,0.178863451,394.7219849,0.157435596,394.7219849,0.208843857,394.7219849,0.177392766,394.7219849,0.178678066,394.7219849,0.234510064
394.3890076,0.116964825,394.3890076,0.323253721,394.3890076,0.21657674,394.3890076,0.082062364,394.3890076,0.149744496,394.3890076,0.179013848,394.3890076,0.157509625,394.3890076,0.208934233,394.3890076,0.177515298,394.3890076,0.178608462,394.3890076,0.234364301
394.0559998,0.117262006,394.0559998,0.323024839,394.0559998,0.216055989,394.0559998,0.081920922,394.0559998,0.14927955,394.0559998,0.178791836,394.0559998,0.157423616,394.0559998,0.208784536,394.0559998,0.177209362,394.0559998,0.178375527,394.0559998,0.234001488
393.7229919,0.117493302,393.7229919,0.322611183,393.7229919,0.215437606,393.7229919,0.081715032,393.7229919,0.149305731,393.7229919,0.178806871,393.7229919,0.157198191,393.7229919,0.208677456,393.7229919,0.176792681,393.7229919,0.178285062,393.7229919,0.233851016
393.3899841,0.1175633,393.3899841,0.322649866,393.3899841,0.215312988,393.3899841,0.081619434,393.3899841,0.14905113,393.3899841,0.178993791,393.3899841,0.157312125,393.3899841,0.208884776,393.3899841,0.176637799,393.3899841,0.178219229,393.3899841,0.233640537
393.0570068,0.117939346,393.0570068,0.322303265,393.0570068,0.214660391,393.0570068,0.081301361,393.0570068,0.148801312,393.0570068,0.178704247,393.0570068,0.157130241,393.0570068,0.208691612,393.0570068,0.176380932,393.0570068,0.17793116,393.0570068,0.23342146
392.723999,0.118060641,392.723999,0.322190881,392.723999,0.214164183,392.723999,0.081195675,392.723999,0.148727953,392.723999,0.178560868,392.723999,0.156920835,392.723999,0.208717644,392.723999,0.176200479,392.723999,0.177991688,392.723999,0.233050272
392.3909912,0.118169539,392.3909912,0.322239965,392.3909912,0.214219168,392.3909912,0.081283785,392.3909912,0.148598507,392.3909912,0.17874369,392.3909912,0.157000274,392.3909912,0.208798945,392.3909912,0.176031798,392.3909912,0.177940175,392.3909912,0.233224779
392.0580139,0.118493937,392.0580139,0.321939975,392.0580139,0.213856056,392.0580139,0.081075452,392.0580139,0.148334786,392.0580139,0.178513929,392.0580139,0.156738639,392.0580139,0.2085502,392.0580139,0.175864428,392.0580139,0.17801103,392.0580139,0.233015209
391.7250061,0.118486695,391.7250061,0.321951032,391.7250061,0.213705763,391.7250061,0.081152298,391.7250061,0.14851436,391.7250061,0.178756863,391.7250061,0.15698044,391.7250061,0.208904207,391.7250061,0.175904244,391.7250061,0.178320736,391.7250061,0.233071879
391.3919983,0.11860726,391.3919983,0.322205305,391.3919983,0.213656738,391.3919983,0.081106275,391.3919983,0.148425534,391.3919983,0.178863213,391.3919983,0.156866148,391.3919983,0.208936364,391.3919983,0.175851852,391.3919983,0.178260863,391.3919983,0.233111322
391.0589905,0.118515529,391.0589905,0.322183102,391.0589905,0.213712499,391.0589905,0.081283189,391.0589905,0.148715556,391.0589905,0.179074571,391.0589905,0.15704447,391.0589905,0.209249869,391.0589905,0.176269203,391.0589905,0.178760842,391.0589905,0.233540356
390.7260132,0.118540324,390.7260132,0.322316051,390.7260132,0.213613853,390.7260132,0.081286184,390.7260132,0.148811847,390.7260132,0.179340899,390.7260132,0.157111034,390.7260132,0.209487259,390.7260132,0.176391184,390.7260132,0.178697869,390.7260132,0.233571827
390.3930054,0.118231453,390.3930054,0.322893977,390.3930054,0.214242309,390.3930054,0.081731841,390.3930054,0.149341866,390.3930054,0.179898366,390.3930054,0.157558546,390.3930054,0.209868476,390.3930054,0.176690981,390.3930054,0.179237858,390.3930054,0.234181255
390.0599976,0.118181869,390.0599976,0.323178649,390.0599976,0.214287892,390.0599976,0.081715278,390.0599976,0.149297148,390.0599976,0.180168301,390.0599976,0.157536671,390.0599976,0.210219264,390.0599976,0.17704986,390.0599976,0.179574311,390.0599976,0.234398052
389.7269897,0.118002348,389.7269897,0.323737443,389.7269897,0.214589655,389.7269897,0.08201737,389.7269897,0.14971593,389.7269897,0.18068555,389.7269897,0.157832354,389.7269897,0.210531294,389.7269897,0.177234054,389.7269897,0.18014349,389.7269897,0.234841868
389.3940125,0.117628492,389.3940125,0.324471057,389.3940125,0.215090811,389.3940125,0.082538053,389.3940125,0.150026456,389.3940125,0.181161419,389.3940125,0.158533156,389.3940125,0.211378753,389.3940125,0.177774519,389.3940125,0.180508375,389.3940125,0.235522717
389.0610046,0.117593028,389.0610046,0.324767232,389.0610046,0.215173617,389.0610046,0.082716055,389.0610046,0.150014669,389.0610046,0.181436509,389.0610046,0.158535466,389.0610046,0.211560741,389.0610046,0.178102106,389.0610046,0.180811495,389.0610046,0.235695288
388.7279968,0.117434204,388.7279968,0.325403184,388.7279968,0.215497121,388.7279968,0.083022475,388.7279968,0.150470421,388.7279968,0.181715846,388.7279968,0.15881598,388.7279968,0.212000668,388.7279968,0.178253606,388.7279968,0.181231678,388.7279968,0.236220375
388.394989,0.117381319,388.394989,0.325959116,388.394989,0.215757579,388.394989,0.083254099,388.394989,0.150567681,388.394989,0.182077646,388.394989,0.159194112,388.394989,0.212330863,388.394989,0.17861402,388.394989,0.181443811,388.394989,0.236572504
388.0620117,0.117487975,388.0620117,0.326323867,388.0620117,0.215693429,388.0620117,0.083251029,388.0620117,0.150725588,388.0620117,0.1821675,388.0620117,0.159130395,388.0620117,0.21245037,388.0620117,0.178805739,388.0620117,0.181672588,388.0620117,0.236668125
387.7290039,0.117404215,387.7290039,0.326566219,387.7290039,0.216215059,387.7290039,0.083504893,387.7290039,0.151228353,387.7290039,0.182810471,387.7290039,0.159567475,387.7290039,0.212962121,387.7290039,0.179202274,387.7290039,0.182106465,387.7290039,0.237245217
387.3959961,0.117636398,387.3959961,0.326868087,387.3959961,0.21622546,387.3959961,0.083314963,387.3959961,0.151014775,387.3959961,0.182710633,387.3959961,0.159582466,387.3959961,0.212958813,387.3959961,0.179352671,387.3959961,0.182030529,387.3959961,0.237026736
387.0629883,0.11779014,387.0629883,0.327102512,387.0629883,0.216197267,387.0629883,0.083297998,387.0629883,0.150924951,387.0629883,0.182893008,387.0629883,0.159535453,387.0629883,0.212964997,387.0629883,0.179459602,387.0629883,0.182277486,387.0629883,0.237492353
386.730011,0.118091181,386.730011,0.326880842,386.730011,0.216085747,386.730011,0.083112299,386.730011,0.15075174,386.730011,0.182979286,386.730011,0.15937005,386.730011,0.213061497,386.730011,0.179358661,386.730011,0.182312146,386.730011,0.237394095
386.3970032,0.11834427,386.3970032,0.327088624,386.3970032,0.216213018,386.3970032,0.083110735,386.3970032,0.150577426,386.3970032,0.182917118,386.3970032,0.159667924,386.3970032,0.212950409,386.3970032,0.179402947,386.3970032,0.182359099,386.3970032,0.237347543
386.0639954,0.118729733,386.0639954,0.327015549,386.0639954,0.216126412,386.0639954,0.082831629,386.0639954,0.150369406,386.0639954,0.182764694,386.0639954,0.159391761,386.0639954,0.212852657,386.0639954,0.179308817,386.0639954,0.182391763,386.0639954,0.237467706
385.7309875,0.11899592,385.7309875,0.327050835,385.7309875,0.216060117,385.7309875,0.082824238,385.7309875,0.150290474,385.7309875,0.182842612,385.7309875,0.159311548,385.7309875,0.213105306,385.7309875,0.179180056,385.7309875,0.182309821,385.7309875,0.237254381
385.3980103,0.11920692,385.3980103,0.32728374,385.3980103,0.216184869,385.3980103,0.082812019,385.3980103,0.150376067,385.3980103,0.18278791,385.3980103,0.159501478,385.3980103,0.213118196,385.3980103,0.179373711,385.3980103,0.18260175,385.3980103,0.237643763
385.0650024,0.119511232,385.0650024,0.32716307,385.0650024,0.216327131,385.0650024,0.08251711,385.0650024,0.150264308,385.0650024,0.182889193,385.0650024,0.159344301,385.0650024,0.21310924,385.0650024,0.17944625,385.0650024,0.18254815,385.0650024,0.237418339
384.7319946,0.11955101,384.7319946,0.327723175,384.7319946,0.216447443,384.7319946,0.082751445,384.7319946,0.150383338,384.7319946,0.18313691,384.7319946,0.159514666,384.7319946,0.213623971,384.7319946,0.179813564,384.7319946,0.182769537,384.7319946,0.237890095
384.3989868,0.119669557,384.3989868,0.328040779,384.3989868,0.216740832,384.3989868,0.082859069,384.3989868,0.15035066,384.3989868,0.183290884,384.3989868,0.159635931,384.3989868,0.213619441,384.3989868,0.17981568,384.3989868,0.182934314,384.3989868,0.238013223
384.0660095,0.119835854,384.0660095,0.328197658,384.0660095,0.216833025,384.0660095,0.082691655,384.0660095,0.150336102,384.0660095,0.183388054,384.0660095,0.159720838,384.0660095,0.213743627,384.0660095,0.180111423,384.0660095,0.183260933,384.0660095,0.238224179
383.7330017,0.119706079,383.7330017,0.329079688,383.7330017,0.217410907,383.7330017,0.083241619,383.7330017,0.150878832,383.7330017,0.18411459,383.7330017,0.159939706,383.7330017,0.214449585,383.7330017,0.180805609,383.7330017,0.183812946,383.7330017,0.238776445
383.3999939,0.119725891,383.3999939,0.329425961,383.3999939,0.217747375,383.3999939,0.083355136,383.3999939,0.150944263,383.3999939,0.184333012,383.3999939,0.160122469,383.3999939,0.214621186,383.3999939,0.181013465,383.3999939,0.184067249,383.3999939,0.238957256
383.0669861,0.119661406,383.0669861,0.330054194,383.0669861,0.218054339,383.0669861,0.083509818,383.0669861,0.151177019,383.0669861,0.184574008,383.0669861,0.160427198,383.0669861,0.215034202,383.0669861,0.181494772,383.0669861,0.184482589,383.0669861,0.239334434
382.7340088,0.119480968,382.7340088,0.330565423,382.7340088,0.218736723,382.7340088,0.083967999,382.7340088,0.151600182,382.7340088,0.185270399,382.7340088,0.160596669,382.7340088,0.215538621,382.7340088,0.181918442,382.7340088,0.185015112,382.7340088,0.239824787
382.401001,0.119317256,382.401001,0.331247807,382.401001,0.219350994,382.401001,0.084280647,382.401001,0.152077109,382.401001,0.185627312,382.401001,0.161324605,382.401001,0.215947226,382.401001,0.182508543,382.401001,0.185422003,382.401001,0.240271345
382.0679932,0.119291432,382.0679932,0.331656575,382.0679932,0.219398126,382.0679932,0.084386081,382.0679932,0.152114362,382.0679932,0.18598035,382.0679932,0.161497891,382.0679932,0.216448635,382.0679932,0.182878584,382.0679932,0.185930938,382.0679932,0.24068296
381.7349854,0.11919646,381.7349854,0.332344174,381.7349854,0.220037311,381.7349854,0.0846541,381.7349854,0.152581513,381.7349854,0.186499327,381.7349854,0.161829546,381.7349854,0.216858059,381.7349854,0.183291093,381.7349854,0.186421499,381.7349854,0.241338834
381.4020081,0.119200341,381.4020081,0.332582325,381.4020081,0.220397666,381.4020081,0.084793009,381.4020081,0.152752951,381.4020081,0.186706737,381.4020081,0.162074745,381.4020081,0.217179552,381.4020081,0.183597788,381.4020081,0.186575368,381.4020081,0.241513714
381.0690002,0.1193652,381.0690002,0.332844019,381.0690002,0.220529482,381.0690002,0.084759183,381.0690002,0.152682304,381.0690002,0.186721742,381.0690002,0.162130356,381.0690002,0.21732913,381.0690002,0.183860779,381.0690002,0.18704927,381.0690002,0.241807059
380.7359924,0.119343393,380.7359924,0.332978725,380.7359924,0.22090824,380.7359924,0.084857084,380.7359924,0.152903006,380.7359924,0.187090084,380.7359924,0.162549019,380.7359924,0.21775502,380.7359924,0.184136972,380.7359924,0.187250376,380.7359924,0.242217377
380.4029846,0.119564749,380.4029846,0.333384007,380.4029846,0.221161485,380.4029846,0.084922262,380.4029846,0.152933002,380.4029846,0.187286824,380.4029846,0.162638754,380.4029846,0.217933968,380.4029846,0.184502617,380.4029846,0.187563822,380.4029846,0.242453814
380.0700073,0.119868942,380.0700073,0.333463252,380.0700073,0.221086457,380.0700073,0.084954813,380.0700073,0.152881503,380.0700073,0.187254712,380.0700073,0.16253306,380.0700073,0.217939869,380.0700073,0.184528396,380.0700073,0.187719569,380.0700073,0.242549822
379.7369995,0.120086305,379.7369995,0.333676785,379.7369995,0.221164808,379.7369995,0.084784321,379.7369995,0.152962595,379.7369995,0.187415183,379.7369995,0.162595496,379.7369995,0.21809715,379.7369995,0.184677318,379.7369995,0.187798306,379.7369995,0.242760062
379.4039917,0.120487258,379.4039917,0.333754093,379.4039917,0.220969588,379.4039917,0.084705032,379.4039917,0.152622446,379.4039917,0.187266618,379.4039917,0.162478373,379.4039917,0.217928827,379.4039917,0.184616327,379.4039917,0.187639013,379.4039917,0.24271217
379.0709839,0.120729603,379.0709839,0.333982229,379.0709839,0.221063584,379.0709839,0.084501088,379.0709839,0.15258728,379.0709839,0.18736656,379.0709839,0.162468702,379.0709839,0.217902884,379.0709839,0.184805065,379.0709839,0.187699229,379.0709839,0.242838487
378.7380066,0.12081866,378.7380066,0.334444702,378.7380066,0.22129491,378.7380066,0.084365703,378.7380066,0.152741909,378.7380066,0.187347874,378.7380066,0.162611798,378.7380066,0.218351245,378.7380066,0.185108274,378.7380066,0.187983364,378.7380066,0.243174762
378.4049988,0.121214911,378.4049988,0.334582448,378.4049988,0.221332058,378.4049988,0.084250443,378.4049988,0.152309954,378.4049988,0.187363282,378.4049988,0.162344053,378.4049988,0.218041807,378.4049988,0.184870392,378.4049988,0.187706858,378.4049988,0.243050396
378.071991,0.121263512,378.071991,0.33487621,378.071991,0.221396998,378.071991,0.084252834,378.071991,0.152477607,378.071991,0.18750976,378.071991,0.162510812,378.071991,0.21838437,378.071991,0.185345128,378.071991,0.188153759,378.071991,0.24338463
377.7390137,0.121340483,377.7390137,0.335423112,377.7390137,0.221516952,377.7390137,0.084276058,377.7390137,0.152456611,377.7390137,0.187573344,377.7390137,0.162647814,377.7390137,0.218614534,377.7390137,0.185295194,377.7390137,0.188324422,377.7390137,0.243766025
377.4060059,0.1213689,377.4060059,0.335918099,377.4060059,0.221972793,377.4060059,0.0844272,377.4060059,0.15251784,377.4060059,0.187657803,377.4060059,0.162770078,377.4060059,0.218883157,377.4060059,0.185721874,377.4060059,0.188447759,377.4060059,0.244069889
377.072998,0.121323437,377.072998,0.336089104,377.072998,0.222204551,377.072998,0.084651902,377.072998,0.152871966,377.072998,0.188278049,377.072998,0.163107187,377.072998,0.219428808,377.072998,0.186340228,377.072998,0.189122483,377.072998,0.244497433
376.7399902,0.121078499,376.7399902,0.336877972,376.7399902,0.222979948,376.7399902,0.085115887,376.7399902,0.153405786,376.7399902,0.188717753,376.7399902,0.163423598,376.7399902,0.219893485,376.7399902,0.186850682,376.7399902,0.189626157,376.7399902,0.245307788
376.4070129,0.12099018,376.4070129,0.337436795,376.4070129,0.223221913,376.4070129,0.085369021,376.4070129,0.153606758,376.4070129,0.189167529,376.4070129,0.163632691,376.4070129,0.22021839,376.4070129,0.187289089,376.4070129,0.189933345,376.4070129,0.245461687
376.0740051,0.120810039,376.0740051,0.337749511,376.0740051,0.223784268,376.0740051,0.085584879,376.0740051,0.153818175,376.0740051,0.189597711,376.0740051,0.164014921,376.0740051,0.220800325,376.0740051,0.187744707,376.0740051,0.190498903,376.0740051,0.246149421
375.7409973,0.120396733,375.7409973,0.338602543,375.7409973,0.224444687,375.7409973,0.086091265,375.7409973,0.154467523,375.7409973,0.190216333,375.7409973,0.164277956,375.7409973,0.221367136,375.7409973,0.188399226,375.7409973,0.191211745,375.7409973,0.246803641
375.4079895,0.120256551,375.4079895,0.338927567,375.4079895,0.225026831,375.4079895,0.086268865,375.4079895,0.154496148,375.4079895,0.19067426,375.4079895,0.164827302,375.4079895,0.221771419,375.4079895,0.188912824,375.4079895,0.191605195,375.4079895,0.247087181
375.0750122,0.120033883,375.0750122,0.339571059,375.0750122,0.225597367,375.0750122,0.086470835,375.0750122,0.154787675,375.0750122,0.191080213,375.0750122,0.165162951,375.0750122,0.222228989,375.0750122,0.189462706,375.0750122,0.192188039,375.0750122,0.247718319
374.7420044,0.120012686,374.7420044,0.340005696,374.7420044,0.225939542,374.7420044,0.086560614,374.7420044,0.154940248,374.7420044,0.191342264,374.7420044,0.165194497,374.7420044,0.222610325,374.7420044,0.189817309,374.7420044,0.192558184,374.7420044,0.24795939
374.4089966,0.119860172,374.4089966,0.340611637,374.4089966,0.226387575,374.4089966,0.086901195,374.4089966,0.155171379,374.4089966,0.191663399,374.4089966,0.165555626,374.4089966,0.222845882,374.4089966,0.190077961,374.4089966,0.192824289,374.4089966,0.248294994
374.0759888,0.11997655,374.0759888,0.340869248,374.0759888,0.226681814,374.0759888,0.086837739,374.0759888,0.155158788,374.0759888,0.191750452,374.0759888,0.165623173,374.0759888,0.223027065,374.0759888,0.190461814,374.0759888,0.192905486,374.0759888,0.248576239
373.7430115,0.119925506,373.7430115,0.341837734,373.7430115,0.227173239,373.7430115,0.087230101,373.7430115,0.155414149,373.7430115,0.192090988,373.7430115,0.165796772,373.7430115,0.223533079,373.7430115,0.190737024,373.7430115,0.193367839,373.7430115,0.248911813
373.4100037,0.120143168,373.4100037,0.34187004,373.4100037,0.227340937,373.4100037,0.087293647,373.4100037,0.155413732,373.4100037,0.191935301,373.4100037,0.165933758,373.4100037,0.22348474,373.4100037,0.190871224,373.4100037,0.193363071,373.4100037,0.248821691
373.0769958,0.120503828,373.0769958,0.342112839,373.0769958,0.227161363,373.0769958,0.086796671,373.0769958,0.155067787,373.0769958,0.191944882,373.0769958,0.165697396,373.0769958,0.223465771,373.0769958,0.190977737,373.0769958,0.193313941,373.0769958,0.248863787
372.743988,0.120596863,372.743988,0.34250918,372.743988,0.227265701,372.743988,0.08677277,372.743988,0.155170336,372.743988,0.192068383,372.743988,0.165655166,372.743988,0.223463267,372.743988,0.19115828,372.743988,0.193350494,372.743988,0.248844743
372.4110107,0.121054523,372.4110107,0.34236908,372.4110107,0.227041662,372.4110107,0.086437099,372.4110107,0.154794112,372.4110107,0.191854,372.4110107,0.165622532,372.4110107,0.223258734,372.4110107,0.190923497,372.4110107,0.193233505,372.4110107,0.248741731
372.0780029,0.121035948,372.0780029,0.342658371,372.0780029,0.227340102,372.0780029,0.086379677,372.0780029,0.154912502,372.0780029,0.192123056,372.0780029,0.165438235,372.0780029,0.223704621,372.0780029,0.191406176,372.0780029,0.193520755,372.0780029,0.249085009
371.7449951,0.12106923,371.7449951,0.343259364,371.7449951,0.227631852,371.7449951,0.086475536,371.7449951,0.155158237,371.7449951,0.192452386,371.7449951,0.165710509,371.7449951,0.223927558,371.7449951,0.191533372,371.7449951,0.193727985,371.7449951,0.249315336
371.4119873,0.121182032,371.4119873,0.343478799,371.4119873,0.2276012,371.4119873,0.086540557,371.4119873,0.154957622,371.4119873,0.192372829,371.4119873,0.165961146,371.4119873,0.224053547,371.4119873,0.191609234,371.4119873,0.193880707,371.4119873,0.249427453
371.07901,0.121162869,371.07901,0.343768895,371.07901,0.227844656,371.07901,0.086639963,371.07901,0.155229181,371.07901,0.19257465,371.07901,0.166021347,371.07901,0.224233449,371.07901,0.191994354,371.07901,0.194384754,371.07901,0.249820501
370.7460022,0.120855309,370.7460022,0.344584495,370.7460022,0.228600234,370.7460022,0.087086402,370.7460022,0.155654088,370.7460022,0.193166465,370.7460022,0.166494772,370.7460022,0.225021407,370.7460022,0.192460001,370.7460022,0.194827527,370.7460022,0.250466466
370.4129944,0.120966993,370.4129944,0.344895005,370.4129944,0.228572756,370.4129944,0.087227955,370.4129944,0.155657604,370.4129944,0.193360403,370.4129944,0.166775927,370.4129944,0.22531715,370.4129944,0.19303757,370.4129944,0.19528684,370.4129944,0.250834316
370.0799866,0.120719217,370.0799866,0.34554258,370.0799866,0.229217023,370.0799866,0.087544575,370.0799866,0.156048194,370.0799866,0.193651408,370.0799866,0.167213589,370.0799866,0.225803196,370.0799866,0.193514407,370.0799866,0.195746735,370.0799866,0.251455367
369.7470093,0.120340824,369.7470093,0.346488297,369.7470093,0.230013028,369.7470093,0.088048689,369.7470093,0.156517029,369.7470093,0.194295868,369.7470093,0.1676884,369.7470093,0.226542279,369.7470093,0.194175869,369.7470093,0.196518555,369.7470093,0.251969576
369.4140015,0.120223671,369.4140015,0.347134352,369.4140015,0.23044388,369.4140015,0.088290244,369.4140015,0.156814113,369.4140015,0.194606587,369.4140015,0.16798152,369.4140015,0.226771176,369.4140015,0.194703803,369.4140015,0.196795002,369.4140015,0.252620786
369.0809937,0.119952664,369.0809937,0.347757936,369.0809937,0.231044278,369.0809937,0.088438824,369.0809937,0.157193109,369.0809937,0.195184633,369.0809937,0.168351352,369.0809937,0.227246136,369.0809937,0.195182845,369.0809937,0.197332323,369.0809937,0.253149271
368.7479858,0.119649269,368.7479858,0.348921061,368.7479858,0.231701672,368.7479858,0.088959545,368.7479858,0.157707587,368.7479858,0.195727646,368.7479858,0.168830767,368.7479858,0.227963656,368.7479858,0.195682555,368.7479858,0.197851494,368.7479858,0.253900021
368.4150085,0.119700722,368.4150085,0.349201292,368.4150085,0.231945306,368.4150085,0.089059003,368.4150085,0.157687217,368.4150085,0.1959057,368.4150085,0.168897137,368.4150085,0.227968067,368.4150085,0.196118832,368.4150085,0.197884277,368.4150085,0.254038096
368.0820007,0.119533323,368.0820007,0.350055307,368.0820007,0.232604876,368.0820007,0.089209147,368.0820007,0.157918215,368.0820007,0.196375161,368.0820007,0.169337124,368.0820007,0.228501961,368.0820007,0.196572453,368.0820007,0.198468417,368.0820007,0.254724234
367.7489929,0.119591102,367.7489929,0.350641727,367.7489929,0.233048141,367.7489929,0.089358166,367.7489929,0.158123568,367.7489929,0.196639121,367.7489929,0.169411182,367.7489929,0.228870541,367.7489929,0.196735784,367.7489929,0.198528066,367.7489929,0.254991651
367.4159851,0.119732402,367.4159851,0.350924641,367.4159851,0.233185619,367.4159851,0.089483343,367.4159851,0.157919258,367.4159851,0.196438029,367.4159851,0.169599995,367.4159851,0.228750899,367.4159851,0.197023362,367.4159851,0.198651001,367.4159851,0.255268097
367.0830078,0.119948193,367.0830078,0.351287574,367.0830078,0.233510792,367.0830078,0.089224271,367.0830078,0.157991588,367.0830078,0.196711928,367.0830078,0.169679195,367.0830078,0.229077324,367.0830078,0.197051227,367.0830078,0.198985279,367.0830078,0.255380631
366.75,0.120135523,366.75,0.351654619,366.75,0.233824492,366.75,0.089229614,366.75,0.157950848,366.75,0.196791813,366.75,0.16967839,366.75,0.229247615,366.75,0.197243318,366.75,0.199035585,366.75,0.255743295
366.4169922,0.120376036,366.4169922,0.351754636,366.4169922,0.233875185,366.4169922,0.089113943,366.4169922,0.157818541,366.4169922,0.196732,366.4169922,0.169716194,366.4169922,0.229382664,366.4169922,0.197467759,366.4169922,0.199087039,366.4169922,0.255566657
366.0839844,0.120485,366.0839844,0.352169365,366.0839844,0.234152764,366.0839844,0.088982038,366.0839844,0.158020631,366.0839844,0.196790025,366.0839844,0.169806495,366.0839844,0.229395524,366.0839844,0.197698191,366.0839844,0.199428409,366.0839844,0.255828947
365.7510071,0.120719485,365.7510071,0.35239774,365.7510071,0.234294683,365.7510071,0.088961579,365.7510071,0.157647446,365.7510071,0.196797848,365.7510071,0.169884816,365.7510071,0.229532167,365.7510071,0.1976877,365.7510071,0.199350938,365.7510071,0.255892068
365.4179993,0.120761871,365.4179993,0.352856308,365.4179993,0.234660178,365.4179993,0.089071266,365.4179993,0.157805339,365.4179993,0.196941912,365.4179993,0.169989482,365.4179993,0.229608446,365.4179993,0.198062122,365.4179993,0.199622214,365.4179993,0.25604561
365.0849915,0.120842695,365.0849915,0.353389144,365.0849915,0.234766349,365.0849915,0.089092523,365.0849915,0.157879874,365.0849915,0.197303206,365.0849915,0.170263425,365.0849915,0.229906559,365.0849915,0.198312029,365.0849915,0.200094402,365.0849915,0.256469756
364.7520142,0.12077681,364.7520142,0.354023248,364.7520142,0.235135362,364.7520142,0.089335397,364.7520142,0.15815042,364.7520142,0.197519973,364.7520142,0.17048654,364.7520142,0.230357915,364.7520142,0.198792651,364.7520142,0.200254217,364.7520142,0.256576955
364.4190063,0.120810896,364.4190063,0.354540378,364.4190063,0.235563636,364.4190063,0.089492343,364.4190063,0.158071667,364.4190063,0.197799742,364.4190063,0.170460314,364.4190063,0.230491236,364.4190063,0.198935345,364.4190063,0.200556949,364.4190063,0.256806523
364.0859985,0.120693408,364.0859985,0.35537827,364.0859985,0.235866442,364.0859985,0.089672171,364.0859985,0.158374474,364.0859985,0.198121846,364.0859985,0.170862034,364.0859985,0.231066614,364.0859985,0.199334756,364.0859985,0.20108518,364.0859985,0.257263273
363.7529907,0.120157845,363.7529907,0.356640041,363.7529907,0.236737013,363.7529907,0.090304308,363.7529907,0.159181222,363.7529907,0.19881691,363.7529907,0.171398237,363.7529907,0.231663674,363.7529907,0.200298101,363.7529907,0.201863959,363.7529907,0.258003682
363.4200134,0.120151565,363.4200134,0.357363343,363.4200134,0.237305388,363.4200134,0.090459384,363.4200134,0.159198105,363.4200134,0.199319556,363.4200134,0.171769217,363.4200134,0.232188508,363.4200134,0.200820759,363.4200134,0.202141747,363.4200134,0.258527875
363.0870056,0.119866483,363.0870056,0.358290374,363.0870056,0.237867892,363.0870056,0.090835892,363.0870056,0.15988636,363.0870056,0.199771196,363.0870056,0.172250852,363.0870056,0.232923627,363.0870056,0.201535121,363.0870056,0.202775836,363.0870056,0.259021521
362.7539978,0.119624212,362.7539978,0.359299451,362.7539978,0.238695607,362.7539978,0.091264695,362.7539978,0.160249248,362.7539978,0.200386256,362.7539978,0.17248638,362.7539978,0.233365193,362.7539978,0.201996893,362.7539978,0.203268811,362.7539978,0.259696841
362.42099,0.119516552,362.42099,0.359685153,362.42099,0.23921667,362.42099,0.091599867,362.42099,0.160326347,362.42099,0.200666189,362.42099,0.172801957,362.42099,0.233629227,362.42099,0.202336609,362.42099,0.203499988,362.42099,0.259943664
362.0880127,0.119391844,362.0880127,0.360456854,362.0880127,0.239538163,362.0880127,0.091869794,362.0880127,0.16052559,362.0880127,0.200847387,362.0880127,0.173076719,362.0880127,0.234227642,362.0880127,0.202921569,362.0880127,0.204153568,362.0880127,0.260515809
361.7550049,0.119354606,361.7550049,0.360873789,361.7550049,0.240113825,361.7550049,0.091903508,361.7550049,0.16072917,361.7550049,0.201302141,361.7550049,0.173235431,361.7550049,0.234504551,361.7550049,0.202984974,361.7550049,0.204267874,361.7550049,0.260672808
361.4219971,0.119404458,361.4219971,0.361418396,361.4219971,0.240300521,361.4219971,0.09181191,361.4219971,0.160817817,361.4219971,0.201567605,361.4219971,0.173551127,361.4219971,0.234746844,361.4219971,0.203361377,361.4219971,0.204504594,361.4219971,0.261001468
361.0889893,0.119577266,361.0889893,0.361734897,361.0889893,0.240572274,361.0889893,0.091814496,361.0889893,0.160907194,361.0889893,0.201320291,361.0889893,0.173546106,361.0889893,0.23490037,361.0889893,0.203646675,361.0889893,0.204680398,361.0889893,0.261342496
360.756012,0.119721592,360.756012,0.362265378,360.756012,0.24096781,360.756012,0.0918696,360.756012,0.160961986,360.756012,0.201811761,360.756012,0.173536137,360.756012,0.234927714,360.756012,0.203825355,360.756012,0.204869464,360.756012,0.261507183
360.4230042,0.120014124,360.4230042,0.362658858,360.4230042,0.241035074,360.4230042,0.091531277,360.4230042,0.160694286,360.4230042,0.201421052,360.4230042,0.173480555,360.4230042,0.234914288,360.4230042,0.203993425,360.4230042,0.205010086,360.4230042,0.261459023
360.0899963,0.12020544,360.0899963,0.363158375,360.0899963,0.241180614,360.0899963,0.091557547,360.0899963,0.160800621,360.0899963,0.201555327,360.0899963,0.173761711,360.0899963,0.235096216,360.0899963,0.204098821,360.0899963,0.205213249,360.0899963,0.261802673
359.7569885,0.120373473,359.7569885,0.36401239,359.7569885,0.24184455,359.7569885,0.091744594,359.7569885,0.160875589,359.7569885,0.201961532,359.7569885,0.173740894,359.7569885,0.235420331,359.7569885,0.204214051,359.7569885,0.205401883,359.7569885,0.262224168
359.4240112,0.120622799,359.4240112,0.364317626,359.4240112,0.241945624,359.4240112,0.09151715,359.4240112,0.160558,359.4240112,0.201931417,359.4240112,0.174029976,359.4240112,0.23542425,359.4240112,0.204614624,359.4240112,0.20552747,359.4240112,0.262427062
359.0910034,0.120597787,359.0910034,0.365147591,359.0910034,0.242383614,359.0910034,0.091678701,359.0910034,0.160874277,359.0910034,0.202178031,359.0910034,0.174287543,359.0910034,0.235879496,359.0910034,0.204736799,359.0910034,0.205834448,359.0910034,0.262764037
358.7579956,0.120622151,358.7579956,0.365900338,358.7579956,0.242896631,358.7579956,0.091822974,358.7579956,0.160895765,358.7579956,0.202432931,358.7579956,0.174127728,358.7579956,0.236193225,358.7579956,0.205065295,358.7579956,0.206036791,358.7579956,0.263247699
358.4249878,0.120452344,358.4249878,0.366640955,358.4249878,0.243459389,358.4249878,0.092042446,358.4249878,0.161193535,358.4249878,0.202761993,358.4249878,0.174896643,358.4249878,0.236822739,358.4249878,0.205756784,358.4249878,0.206613794,358.4249878,0.263748378
358.0920105,0.120329313,358.0920105,0.367578864,358.0920105,0.243997783,358.0920105,0.092332758,358.0920105,0.16157043,358.0920105,0.203204259,358.0920105,0.174847513,358.0920105,0.23708415,358.0920105,0.206164226,358.0920105,0.207088858,358.0920105,0.264285237
357.7590027,0.120045245,357.7590027,0.368428886,357.7590027,0.244663,357.7590027,0.09272974,357.7590027,0.161983132,357.7590027,0.203680441,357.7590027,0.175406113,357.7590027,0.237801597,357.7590027,0.206840262,357.7590027,0.207474351,357.7590027,0.264951885
357.4259949,0.119886719,357.4259949,0.369077295,357.4259949,0.245184138,357.4259949,0.092903987,357.4259949,0.162296802,357.4259949,0.204030484,357.4259949,0.175743669,357.4259949,0.238202676,357.4259949,0.207415715,357.4259949,0.208140135,357.4259949,0.265728891
357.0929871,0.119467437,357.0929871,0.37031284,357.0929871,0.245898873,357.0929871,0.093449317,357.0929871,0.163021609,357.0929871,0.204752192,357.0929871,0.176214814,357.0929871,0.238883615,357.0929871,0.208348736,357.0929871,0.208629161,357.0929871,0.266366005
356.7600098,0.119363628,356.7600098,0.371077299,356.7600098,0.246567652,356.7600098,0.093713395,356.7600098,0.163062081,356.7600098,0.205080688,356.7600098,0.176650077,356.7600098,0.239362732,356.7600098,0.208659083,356.7600098,0.209140241,356.7600098,0.266682684
356.427002,0.119210191,356.427002,0.371999443,356.427002,0.247402296,356.427002,0.094233185,356.427002,0.163616017,356.427002,0.205806956,356.427002,0.177097961,356.427002,0.239909679,356.427002,0.209329918,356.427002,0.209778324,356.427002,0.267516345
356.0939941,0.119090036,356.0939941,0.373061657,356.0939941,0.247949809,356.0939941,0.094634034,356.0939941,0.163954228,356.0939941,0.206219867,356.0939941,0.177274779,356.0939941,0.240368679,356.0939941,0.20981358,356.0939941,0.210282698,356.0939941,0.268096566
355.7609863,0.119265303,355.7609863,0.373434573,355.7609863,0.248205215,355.7609863,0.094581768,355.7609863,0.163864195,355.7609863,0.206495181,355.7609863,0.177537978,355.7609863,0.240734637,355.7609863,0.210149467,355.7609863,0.2104453,355.7609863,0.268115997
355.428009,0.119180352,355.428009,0.374480754,355.428009,0.248758942,355.428009,0.094734214,355.428009,0.164194599,355.428009,0.206711903,355.428009,0.177734688,355.428009,0.241072416,355.428009,0.210596994,355.428009,0.211066455,355.428009,0.268723816
355.0950012,0.119345166,355.0950012,0.375101298,355.0950012,0.24915874,355.0950012,0.094689079,355.0950012,0.16410099,355.0950012,0.206931666,355.0950012,0.177994341,355.0950012,0.241205379,355.0950012,0.210795224,355.0950012,0.21132721,355.0950012,0.269070238
354.7619934,0.119651176,354.7619934,0.375700355,354.7619934,0.249420285,354.7619934,0.094579481,354.7619934,0.164031878,354.7619934,0.206843972,354.7619934,0.178049222,354.7619934,0.241341084,354.7619934,0.210897937,354.7619934,0.21118322,354.7619934,0.269028813
354.4289856,0.119748943,354.4289856,0.376337439,354.4289856,0.250066757,354.4289856,0.094651967,354.4289856,0.163976848,354.4289856,0.207073927,354.4289856,0.178407311,354.4289856,0.241494492,354.4289856,0.21136415,354.4289856,0.211664274,354.4289856,0.268995792
354.0960083,0.120140098,354.0960083,0.37711069,354.0960083,0.250244916,354.0960083,0.094458357,354.0960083,0.163984373,354.0960083,0.206823677,354.0960083,0.178257465,354.0960083,0.241586894,354.0960083,0.211300477,354.0960083,0.21163249,354.0960083,0.269309342
353.7630005,0.120401859,353.7630005,0.377600521,353.7630005,0.250551909,353.7630005,0.094426565,353.7630005,0.163916335,353.7630005,0.207073793,353.7630005,0.178312302,353.7630005,0.241684079,353.7630005,0.211501464,353.7630005,0.21189566,353.7630005,0.2693111
353.4299927,0.120596349,353.4299927,0.378199309,353.4299927,0.250946313,353.4299927,0.094623834,353.4299927,0.164002225,353.4299927,0.207438335,353.4299927,0.178655028,353.4299927,0.241854489,353.4299927,0.211995736,353.4299927,0.212114468,353.4299927,0.269631535
353.0969849,0.120675258,353.0969849,0.379217356,353.0969849,0.251452774,353.0969849,0.094624795,353.0969849,0.164262235,353.0969849,0.207636446,353.0969849,0.1788681,353.0969849,0.242376745,353.0969849,0.212176278,353.0969849,0.212428629,353.0969849,0.270015299
352.7640076,0.120800264,352.7640076,0.379799426,352.7640076,0.252096534,352.7640076,0.094760008,352.7640076,0.164194375,352.7640076,0.207949013,352.7640076,0.179085076,352.7640076,0.242738783,352.7640076,0.21248664,352.7640076,0.212730408,352.7640076,0.270402253
352.4309998,0.120646894,352.4309998,0.380676568,352.4309998,0.252567202,352.4309998,0.095021047,352.4309998,0.164665446,352.4309998,0.208501667,352.4309998,0.179446921,352.4309998,0.243226975,352.4309998,0.213301972,352.4309998,0.213356242,352.4309998,0.270807684
352.0979919,0.120540723,352.0979919,0.381881118,352.0979919,0.253427386,352.0979919,0.095329411,352.0979919,0.165061861,352.0979919,0.208918229,352.0979919,0.179719746,352.0979919,0.243791029,352.0979919,0.213816077,352.0979919,0.213885918,352.0979919,0.271578223
351.7649841,0.120266043,351.7649841,0.383112073,351.7649841,0.254292965,351.7649841,0.095969103,351.7649841,0.165473625,351.7649841,0.209570259,351.7649841,0.180392638,351.7649841,0.244612992,351.7649841,0.214529797,351.7649841,0.21447435,351.7649841,0.272298664
351.4320068,0.120093502,351.4320068,0.384271324,351.4320068,0.254946768,351.4320068,0.096480027,351.4320068,0.16599229,351.4320068,0.210082814,351.4320068,0.18107976,351.4320068,0.245044932,351.4320068,0.215424597,351.4320068,0.215262577,351.4320068,0.273072153
351.098999,0.119841144,351.098999,0.385479689,351.098999,0.25598225,351.098999,0.096922785,351.098999,0.166558325,351.098999,0.21063605,351.098999,0.181553274,351.098999,0.245708481,351.098999,0.216114789,351.098999,0.215871871,351.098999,0.274007261
350.7659912,0.12002252,350.7659912,0.386539042,350.7659912,0.256280184,350.7659912,0.097096816,350.7659912,0.166616067,350.7659912,0.210928395,350.7659912,0.181587949,350.7659912,0.246096581,350.7659912,0.216521457,350.7659912,0.216280833,350.7659912,0.27431035
350.4330139,0.119945601,350.4330139,0.387618899,350.4330139,0.256918252,350.4330139,0.097388089,350.4330139,0.166919872,350.4330139,0.211465448,350.4330139,0.182090759,350.4330139,0.246707335,350.4330139,0.217326701,350.4330139,0.217146769,350.4330139,0.27504915
350.1000061,0.120129824,350.1000061,0.388880551,350.1000061,0.257712841,350.1000061,0.097638272,350.1000061,0.167200342,350.1000061,0.211723819,350.1000061,0.182311669,350.1000061,0.247181892,350.1000061,0.217610285,350.1000061,0.217271105,350.1000061,0.275530487
349.7669983,0.120483227,349.7669983,0.389613301,349.7669983,0.258045822,349.7669983,0.09765172,349.7669983,0.167263657,349.7669983,0.2120433,349.7669983,0.182350755,349.7669983,0.247150153,349.7669983,0.21771583,349.7669983,0.217499092,349.7669983,0.27572903
